Wavelength,Clean Snow,2023-3-2-BB-DBC,2023-5-6-BB-DBC,2023-5-20-AP-DBC,2023-5-20-BB-DBC,2023-6-8-BB-DBC,2023-6-26-BB-DBC,2023-7-10-BB-DBC,2023-7-17-BB-DBC,2023-7-24-AP-DBC,2023-8-6-CK-DBC,2023-8-23-CK-DBC
205,0.949698982,0.974447514,0.911447007,0.932062624,0.935545709,0.93134091,0.919584986,0.925939105,0.928621556,0.905786379,0.934774307,0.925747874
215,0.950078527,0.974355141,0.910807269,0.932061309,0.935666184,0.931331193,0.91918152,0.925701656,0.928386357,0.905009589,0.934690466,0.925376643
225,0.950534613,0.974295071,0.910401186,0.932201863,0.935912908,0.931464513,0.918975999,0.925635831,0.928319062,0.904489543,0.934749259,0.925188806
235,0.950936688,0.974260311,0.90997999,0.932305979,0.936119862,0.931558305,0.918739337,0.925532405,0.928205548,0.903954974,0.934758651,0.924970044
245,0.951251255,0.974177281,0.909528078,0.932352999,0.936265086,0.931591595,0.918453753,0.925372527,0.928027107,0.903390462,0.934699164,0.924703711
255,0.951640308,0.974154378,0.909289134,0.932528442,0.936523771,0.931755247,0.918350805,0.925371531,0.92800665,0.903060714,0.934774177,0.924607102
265,0.952102463,0.97421218,0.909269484,0.932829686,0.936891288,0.932047893,0.918436107,0.925533216,0.928150496,0.902974974,0.934987786,0.924685905
275,0.952548107,0.97415948,0.909277431,0.933147714,0.937274111,0.932355427,0.918539953,0.925709499,0.928302818,0.902917262,0.93520748,0.924780755
285,0.952959881,0.974315995,0.909274169,0.933423485,0.937608567,0.932618881,0.918616386,0.925850119,0.928414605,0.902851539,0.935380868,0.924848789
295,0.953327687,0.974371745,0.909275895,0.933688487,0.937929389,0.932869459,0.918686867,0.925979976,0.928510064,0.902791318,0.935534991,0.924910035
305,0.953718367,0.974437774,0.909391674,0.93401327,0.938299869,0.933181358,0.918852725,0.926190502,0.928686297,0.90285856,0.935755472,0.925059959
315,0.954129811,0.974534723,0.909604799,0.934387669,0.938710982,0.933544327,0.919099653,0.926469245,0.92893088,0.903034884,0.93603174,0.925285257
325,0.955399083,0.97485951,0.910327471,0.935510005,0.93992762,0.934647533,0.919931216,0.927379935,0.929787832,0.903687257,0.936957177,0.926054649
335,0.956222647,0.975049964,0.910817844,0.936264647,0.940745943,0.93538278,0.920479271,0.927977499,0.930334494,0.904124765,0.93754997,0.926558638
345,0.95768744,0.975400315,0.911677128,0.937573263,0.942165488,0.936660796,0.921447928,0.929030758,0.931318817,0.904903993,0.938608569,0.927453231
355,0.958720573,0.975636561,0.91234103,0.938533066,0.943201402,0.937592258,0.922167898,0.929801719,0.932027401,0.905510948,0.939364221,0.928115561
365,0.959462836,0.975883932,0.912877103,0.939251293,0.943969108,0.938285105,0.922721874,0.930382056,0.932550304,0.906007275,0.93991399,0.928622909
375,0.959973447,0.975974083,0.913317482,0.939801792,0.944551626,0.938811681,0.923154747,0.93082587,0.932938409,0.906417206,0.940316869,0.929016903
385,0.960516684,0.976219393,0.913771102,0.940363684,0.94514572,0.939347058,0.923595953,0.931276517,0.933329789,0.906839069,0.940722281,0.92941789
395,0.960980153,0.976377917,0.914218274,0.940883274,0.94568935,0.939840753,0.924017934,0.931699601,0.9336941,0.90726017,0.941093485,0.929800703
405,0.961387387,0.976505247,0.914658072,0.941369501,0.946193627,0.940301094,0.92442246,0.932099126,0.934034533,0.907677398,0.941435786,0.930166907
415,0.962290864,0.976795336,0.91536911,0.942267886,0.947148745,0.941159284,0.925132475,0.932829038,0.934690899,0.908344932,0.942114,0.930816395
425,0.962214977,0.976861384,0.915589374,0.942362823,0.947217239,0.941239719,0.925267023,0.93292464,0.934738188,0.908567443,0.942135445,0.930931337
435,0.961780997,0.976809596,0.915637759,0.942171123,0.946968774,0.941043493,0.925198628,0.93279578,0.934569986,0.908634988,0.941924065,0.930857759
445,0.961239721,0.976783682,0.915633881,0.941881777,0.946611491,0.940753611,0.925065613,0.932593535,0.934331993,0.908657779,0.941635712,0.930724232
455,0.960442824,0.97667132,0.91549948,0.941377985,0.946018812,0.940256612,0.92477969,0.932222635,0.933932813,0.908563513,0.941173558,0.930448827
465,0.959508273,0.976585942,0.915277615,0.940738369,0.945279219,0.939627362,0.924392607,0.931741434,0.933427695,0.908389694,0.9405985,0.93007948
475,0.958101764,0.976266058,0.91479783,0.9396979,0.944104922,0.938608288,0.923709159,0.930936877,0.93261356,0.90798217,0.939693089,0.929435245
485,0.956615946,0.976078312,0.91423865,0.938544416,0.942812649,0.937476713,0.922935501,0.930035135,0.931706458,0.907502634,0.938689632,0.928707326
495,0.95474537,0.975723809,0.913431796,0.937035857,0.941143456,0.935994464,0.92188174,0.928832204,0.930509763,0.906794885,0.93738089,0.927719308
505,0.952549191,0.975260768,0.912395282,0.935210019,0.939141921,0.934195593,0.920569211,0.927352423,0.929046471,0.905875015,0.935792495,0.926490908
515,0.950100169,0.974738134,0.911150482,0.933119277,0.936868856,0.932128223,0.919025058,0.925628537,0.92734603,0.904759036,0.933959088,0.925046942
525,0.947259463,0.9740857,0.909597382,0.930635152,0.934190918,0.929662773,0.917137493,0.923542687,0.925293319,0.903352103,0.931761679,0.923283205
535,0.944096994,0.973332056,0.9077679,0.92781632,0.931173924,0.92685469,0.914943254,0.921136276,0.922926885,0.901682198,0.929242928,0.921233479
545,0.940327916,0.972367798,0.905441728,0.924390429,0.927536489,0.92342904,0.912198071,0.918154341,0.91999536,0.899536615,0.926145807,0.918669579
555,0.936102843,0.971182995,0.902693609,0.920495778,0.923430699,0.91952051,0.908991591,0.914699611,0.916593427,0.896977242,0.922576728,0.915673794
565,0.931585246,0.970054812,0.899611838,0.916259112,0.918990523,0.915256128,0.90542362,0.910880115,0.912824335,0.894085277,0.918645469,0.912338455
575,0.926820549,0.968755081,0.896238954,0.911751973,0.914291818,0.910708828,0.901546345,0.90675531,0.90874344,0.890895973,0.914413788,0.908711481
585,0.92201466,0.967376085,0.892726373,0.907169712,0.909535907,0.906077769,0.897531734,0.902507583,0.904529207,0.887552083,0.910066991,0.904953124
595,0.916401059,0.965724526,0.888453733,0.901754938,0.903942838,0.900598922,0.892693991,0.897423805,0.899476199,0.883452553,0.904887,0.900421623
605,0.91484268,0.965336071,0.887402403,0.90030701,0.90243399,0.899131385,0.891439008,0.896078376,0.898118331,0.882462031,0.90348045,0.899241002
615,0.907142354,0.962865898,0.881213639,0.892769118,0.894697207,0.891497011,0.884528739,0.888886549,0.890954221,0.876460269,0.896199724,0.892763143
625,0.898597984,0.960237857,0.874087426,0.884302063,0.886041592,0.882917857,0.876635113,0.880722166,0.882799623,0.86949976,0.887962176,0.88535606
635,0.890761041,0.957658998,0.86739574,0.8764922,0.878080849,0.875003647,0.869265871,0.873135089,0.875203827,0.862929501,0.880324623,0.878434194
645,0.883200616,0.955316364,0.860782752,0.868888724,0.87034837,0.867299154,0.862024594,0.865708551,0.867758731,0.856409948,0.872866307,0.871627337
655,0.875471162,0.952610717,0.853909567,0.861093598,0.86243709,0.859401767,0.854542211,0.85806183,0.860087646,0.849609999,0.865206139,0.864589407
665,0.86809994,0.950064032,0.847245094,0.853614852,0.854858732,0.851826313,0.847321197,0.850702349,0.852701537,0.842999335,0.857848426,0.857793249
675,0.861886585,0.948190747,0.841543352,0.847260053,0.848425831,0.845390383,0.84116235,0.844436444,0.846410745,0.837334467,0.85159171,0.851993534
685,0.855006873,0.945631238,0.835182765,0.840237469,0.841326161,0.838279556,0.834324686,0.837496382,0.83944551,0.831001824,0.844676754,0.845552154
695,0.844598483,0.942037333,0.825340226,0.829509647,0.830499289,0.827419936,0.82381579,0.826864158,0.828783687,0.821175531,0.834115982,0.835648094
705,0.832461727,0.937410148,0.813723677,0.816975616,0.81786677,0.81473568,0.811480096,0.814414409,0.816306417,0.809554691,0.821777938,0.824013799
715,0.820749484,0.933275385,0.802341266,0.804792719,0.805601291,0.80241033,0.799447203,0.802293412,0.804165312,0.798151152,0.809786569,0.812655676
725,0.812986116,0.930494455,0.794764167,0.796707933,0.797465105,0.794232651,0.791451828,0.794244935,0.796104582,0.790556789,0.80182779,0.805102738
735,0.805475757,0.927695,0.787403219,0.788882377,0.789593506,0.786318547,0.78370123,0.786449237,0.788299531,0.783174774,0.794124493,0.797776818
745,0.792712426,0.922698226,0.774771309,0.77555405,0.776199548,0.772842904,0.770458809,0.773152963,0.774998187,0.770489461,0.781008539,0.785251549
755,0.776838361,0.916593544,0.758899252,0.758911878,0.759488521,0.756022184,0.753883053,0.756532507,0.75838182,0.754534875,0.764632685,0.769556024
765,0.759166708,0.909639711,0.741107286,0.74035322,0.740864788,0.737271153,0.735363825,0.737982677,0.739845434,0.736638695,0.74636889,0.751995353
775,0.74118701,0.902173219,0.722922407,0.721470226,0.721925637,0.718199592,0.71649244,0.719096109,0.720979873,0.718338553,0.727781778,0.734072584
785,0.724912198,0.895465222,0.706378231,0.704347772,0.704758659,0.700912329,0.699363953,0.701963218,0.70387009,0.701685667,0.710922169,0.717779196
795,0.710487977,0.889462858,0.691666708,0.689161534,0.689537229,0.685584846,0.684161969,0.686763263,0.68869306,0.686875675,0.695964024,0.703297099
805,0.70190566,0.885850815,0.682909961,0.680128896,0.680484172,0.67647029,0.675120286,0.677722691,0.679665767,0.678061842,0.687063792,0.694673618
815,0.699401501,0.884757738,0.680386273,0.67750749,0.677854479,0.673825217,0.672504927,0.675102861,0.677047228,0.675526022,0.6844786,0.692177078
825,0.698641331,0.884248345,0.679662812,0.676738902,0.677081308,0.673049497,0.671745718,0.674338126,0.676280661,0.674802717,0.683719127,0.691451834
835,0.696702794,0.883681253,0.677684726,0.674682685,0.675018385,0.670974789,0.66969507,0.672283516,0.674226812,0.672815582,0.681691007,0.689493845
845,0.683031995,0.87773262,0.663675395,0.660288681,0.660598235,0.65645559,0.655269003,0.657869203,0.659838173,0.658709729,0.667504024,0.675713027
855,0.661664962,0.868175929,0.64172264,0.637794073,0.63806905,0.633774102,0.632710471,0.63533706,0.637349103,0.63660452,0.645322806,0.654124255
865,0.637706065,0.857155517,0.617057042,0.612582491,0.612824485,0.608365832,0.607419314,0.610080429,0.612141455,0.611771796,0.620444803,0.629860676
875,0.60735158,0.843053985,0.585717041,0.580633092,0.580840448,0.57618716,0.575363376,0.57807229,0.580194515,0.58022921,0.58888882,0.599012016
885,0.580294553,0.829714275,0.557782149,0.552220322,0.552401653,0.5475899,0.546858198,0.549609203,0.551782686,0.552127088,0.560795518,0.571485995
895,0.564956008,0.821738361,0.541965772,0.53615409,0.536321798,0.531427695,0.530744203,0.533516902,0.535716983,0.536223483,0.544896,0.555884061
905,0.556916817,0.817620388,0.533669785,0.527729203,0.527889581,0.52295494,0.522297444,0.525079876,0.527292657,0.527884853,0.536553987,0.547693118
915,0.5490417,0.813810453,0.525514683,0.519452951,0.519606525,0.514633345,0.513999962,0.51679189,0.519016855,0.519689014,0.528356487,0.539638669
925,0.539527724,0.808662049,0.515706257,0.509507367,0.509653424,0.504635609,0.50402884,0.5068323,0.509071615,0.509833048,0.518501932,0.529948174
935,0.528787482,0.80322872,0.504585007,0.498240367,0.498378585,0.493312596,0.492733562,0.495549866,0.497804853,0.498660147,0.507333155,0.51895563
945,0.517159324,0.796694917,0.492598738,0.486106709,0.486237011,0.481122419,0.480571397,0.483400629,0.485671433,0.486621568,0.495298923,0.507100381
955,0.492352546,0.783129073,0.466943865,0.460178174,0.460294405,0.455086431,0.454585122,0.457440835,0.459742793,0.460864715,0.469561431,0.481703614
965,0.458218252,0.763114237,0.431711451,0.424638392,0.424738158,0.419430695,0.418987715,0.421869259,0.424203572,0.425522744,0.434229689,0.446754539
975,0.426649865,0.743693817,0.399157867,0.391868874,0.391955617,0.386588697,0.386192147,0.389084113,0.391435869,0.392903229,0.401591851,0.414379616
985,0.397640331,0.724796983,0.369298086,0.361869866,0.361946187,0.356554961,0.356195928,0.359084163,0.361439988,0.363016328,0.371657579,0.384604601
995,0.367798245,0.704015348,0.338665519,0.331155837,0.33122275,0.325839858,0.325515153,0.328384356,0.330730964,0.332393051,0.340948467,0.353970453
1005,0.335028265,0.679708477,0.30511619,0.297593452,0.297651374,0.292320457,0.292029228,0.294857501,0.297176543,0.29890211,0.307312349,0.320303738
1015,0.310196963,0.660051299,0.279776271,0.272299842,0.272351644,0.26709331,0.266825435,0.269606653,0.271891052,0.273644161,0.281901656,0.294783776
1025,0.299579866,0.651287158,0.268967412,0.2615257,0.261574943,0.256357203,0.256099242,0.258855515,0.26112105,0.262881333,0.271059919,0.283871255
1035,0.298267781,0.650103794,0.267643432,0.260205175,0.260253941,0.25504165,0.254785498,0.257538229,0.259801145,0.261563643,0.269730393,0.282532896
1045,0.30540683,0.656278527,0.27488938,0.26742282,0.267472917,0.262232439,0.261971007,0.264740395,0.26701613,0.26877785,0.276995498,0.289850278
1055,0.320892262,0.668822966,0.290678525,0.283166987,0.283220286,0.277927613,0.277653727,0.280455112,0.282755025,0.284508284,0.292825925,0.305769838
1065,0.337489116,0.681809875,0.307631327,0.300092991,0.300149896,0.294814441,0.29452677,0.297355943,0.299676253,0.301413213,0.309820173,0.322825948
1075,0.349026642,0.69051459,0.319440815,0.311895542,0.311954968,0.306597484,0.306300297,0.309144842,0.311476041,0.313198287,0.321656086,0.334685776
1085,0.354283758,0.694480977,0.324821394,0.317274935,0.317335394,0.311969895,0.311668816,0.314519154,0.316854377,0.31857014,0.327047101,0.340083428
1095,0.357674429,0.696975836,0.328298648,0.320751601,0.320812627,0.315442688,0.315139466,0.317993019,0.320330462,0.322042668,0.330530029,0.343569462
1105,0.357669517,0.696981753,0.32829623,0.320746844,0.320807588,0.315437823,0.315135617,0.317988664,0.320325854,0.322040632,0.330525221,0.343565978
1115,0.35343551,0.694137886,0.32393473,0.316381121,0.316440538,0.311076823,0.310779524,0.313627382,0.315961191,0.317686006,0.32615135,0.339190858
1125,0.342166902,0.685596547,0.312412552,0.304858375,0.304914893,0.299570498,0.299284034,0.302117362,0.304441196,0.306185433,0.314600424,0.327624678
1135,0.326003447,0.673042442,0.295901155,0.28836447,0.288417159,0.283110651,0.282838687,0.285646432,0.287951818,0.289716503,0.298047242,0.311022541
1145,0.318048554,0.666655309,0.287791471,0.280270286,0.280321078,0.275037891,0.274773181,0.277565912,0.279860211,0.28163311,0.289915363,0.30285511
1155,0.29342207,0.646382264,0.262705432,0.255269853,0.255315528,0.250124864,0.249880177,0.252617102,0.254868866,0.256651417,0.264760352,0.277534892
1165,0.254822188,0.611456575,0.223620123,0.216430341,0.216468914,0.211491591,0.211276003,0.21389171,0.216048144,0.217808155,0.225552364,0.237891346
1175,0.2229876,0.579186116,0.191652446,0.184780176,0.184813441,0.18008447,0.179891984,0.182371347,0.1844185,0.1861239,0.193464468,0.205257885
1185,0.19642336,0.549266064,0.165214055,0.158698666,0.158727782,0.15426478,0.154091442,0.156427304,0.158358275,0.159990386,0.166908841,0.178095299
1195,0.175687316,0.523188509,0.144804565,0.138633342,0.138659357,0.134446091,0.134287837,0.136490282,0.138312586,0.139868166,0.146395103,0.156998248
1205,0.151855037,0.490237822,0.121590824,0.115897796,0.115920345,0.112047482,0.111907012,0.113928898,0.115603472,0.117047292,0.12304471,0.132838039
1215,0.130787551,0.457124439,0.101414506,0.096226876,0.096246402,0.092728016,0.09260393,0.094438822,0.095959833,0.097281487,0.102730089,0.111666562
1225,0.118720511,0.436154062,0.090032643,0.085174015,0.085191802,0.081902127,0.081787832,0.083502465,0.084924488,0.086165183,0.091260369,0.099638047
1235,0.11123267,0.422271204,0.083046809,0.078408124,0.078424826,0.07528733,0.07517929,0.07681404,0.078170225,0.079356333,0.084216508,0.092220091
1245,0.106099835,0.412344107,0.078294371,0.073813897,0.07382985,0.070801504,0.070697842,0.072275354,0.073584327,0.074730979,0.079422621,0.087156823
1255,0.103399094,0.406930764,0.075811323,0.071416398,0.071431954,0.068462536,0.068361209,0.069907836,0.071191321,0.072316591,0.076917231,0.08450565
1265,0.102106402,0.404280979,0.074628457,0.070274905,0.070290269,0.067349339,0.067249141,0.068780838,0.070052001,0.071166933,0.075723557,0.083241424
1275,0.102417758,0.404997753,0.074905576,0.070542065,0.070557469,0.067609727,0.067509282,0.06904454,0.070318646,0.071436112,0.076003204,0.083537993
1285,0.103975985,0.408204053,0.076330522,0.071916857,0.071932481,0.06895028,0.068848511,0.070401812,0.071690815,0.0728209,0.077441119,0.085061309
1295,0.104916255,0.410062846,0.077197953,0.072754077,0.072769831,0.069766881,0.069664321,0.071228484,0.072526456,0.073664156,0.07831634,0.085987932
1305,0.105862995,0.411944219,0.07807022,0.073596174,0.073612059,0.070588382,0.070485031,0.072060045,0.073366977,0.074512279,0.079196388,0.086919298
1315,0.106481196,0.413263708,0.078630472,0.074137108,0.074153076,0.071116137,0.071012287,0.072594241,0.073906904,0.075057088,0.079761601,0.087517343
1325,0.106768554,0.413920604,0.078886534,0.074384259,0.074400261,0.071357226,0.071253157,0.072838298,0.074153593,0.075306051,0.080019915,0.08779077
1335,0.106716051,0.413772275,0.078842878,0.074341879,0.074357868,0.071315752,0.071211741,0.072796391,0.074111285,0.075263467,0.079975859,0.087744485
1345,0.105093045,0.410639099,0.077338784,0.072889061,0.072904812,0.069898024,0.069795413,0.071361547,0.072661161,0.073800526,0.078458377,0.086139659
1355,0.103206066,0.406787775,0.075610723,0.071220869,0.071236347,0.068270766,0.068169772,0.069714316,0.07099611,0.07212048,0.076714728,0.084294008
1365,0.101122676,0.402474527,0.073708268,0.069385477,0.069400655,0.066481179,0.066381977,0.067902374,0.06916423,0.070271773,0.074794862,0.082259855
1375,0.097288055,0.394639407,0.070193639,0.065998378,0.066012999,0.063181055,0.063085202,0.064559783,0.065783794,0.066859245,0.071247266,0.078494828
1385,0.091401137,0.381794035,0.064875752,0.060882367,0.060896134,0.058202406,0.058111748,0.059514047,0.060678297,0.061702794,0.065877433,0.072780419
1395,0.083485553,0.36351762,0.057816905,0.054109039,0.054121645,0.051622376,0.051538855,0.052839673,0.053919773,0.054871996,0.058745475,0.065159966
1405,0.06050097,0.301419166,0.038164935,0.035373682,0.035382785,0.033514202,0.033453013,0.0344244,0.035232164,0.035948462,0.038900694,0.043663409
1415,0.036824824,0.216817806,0.019884795,0.018201532,0.018206828,0.017079768,0.017043564,0.017629015,0.018116228,0.018550389,0.020303211,0.02323477
1425,0.022036655,0.145744093,0.010273452,0.009308235,0.009311176,0.008666348,0.008645953,0.008980693,0.00925945,0.009508881,0.010512559,0.012196785
1435,0.014388925,0.099671164,0.006251784,0.005630858,0.005632697,0.005218484,0.005205555,0.005420486,0.005599538,0.005760304,0.006405073,0.00748933
1445,0.010439952,0.071942054,0.004584625,0.00411676,0.004118114,0.003806296,0.003796664,0.003958415,0.004093194,0.004214525,0.004699796,0.005516914
1455,0.007801588,0.05109374,0.003715267,0.003330133,0.003331227,0.003074721,0.003066864,0.003199893,0.003310755,0.003410763,0.003809847,0.004482469
1465,0.006196745,0.037064811,0.003329295,0.00298161,0.002982588,0.002751106,0.002744047,0.002864085,0.002964128,0.003054476,0.003414568,0.004021767
1475,0.005276314,0.028383172,0.003175517,0.002842888,0.00284382,0.00262239,0.002615648,0.002730469,0.002826166,0.002912623,0.00325706,0.003837963
1485,0.00481765,0.023848625,0.003121064,0.002793792,0.002794709,0.002576848,0.002570215,0.002683185,0.002777339,0.002862404,0.003201293,0.003772851
1495,0.004658373,0.022254592,0.003104201,0.002778598,0.002779512,0.002562754,0.002556151,0.00266855,0.002762228,0.002846851,0.003184036,0.003752693
1505,0.004740545,0.023113763,0.003108943,0.002782886,0.002783803,0.00256673,0.002560111,0.002672676,0.002766492,0.002851219,0.003188912,0.003758381
1515,0.004859233,0.02433481,0.003117929,0.002791001,0.002791922,0.002574255,0.002567611,0.002680487,0.00277456,0.0028595,0.003198134,0.003769143
1525,0.004982741,0.025591248,0.003128793,0.002800809,0.002801736,0.002583352,0.002576679,0.002689929,0.002784314,0.002869513,0.003209281,0.003782152
